IESNA:LM-63-2002
[TEST]P21072
[TESTLAB]Innovations Center P2
[ISSUEDATE]01/27/11
[MANUFAC]COOPER LIGHTING - NEO-RAY
[LUMCAT]S22DR-1L35-STG-4D-1ED-S92HT
[LUMINAIRE]NEO-RAY 4 FOOT BY 5 INCH TALL BY 1 3/4 INCHES WIDE SUSPENDED
[MORE]FIXTURE DRIVEN AT DIMMED CURRENT (1.5A) WITH 3500K LED MODULE
[MORE]1.5 INCHES FROM OUTER SURFACE OF LIGHT OPENING, PAINTED WHITE
[MORE]INTERIOR OPTICAL CHAMBER, INTERNAL SPECULAR REFLECTORS, AND
[MORE]DIFFUSE WHITE 87 PERCENT TRANSMISSION LENS, NEW DRIVER.
[MORE]--ABSOLUTE PHOTOMETRY IS BASED ON CALIBRATION FACTORS CREATED
[MORE]USING A 500 WATT, NIST TRACEABLE, OMNI-DIRECTIONAL LAB LUMEN
[MORE]STANDARD IN THE GONIOPHOTOMETER WITH TEST DISTANCE OF 28.75
[MORE]FEET---
[LAMPCAT](4)LLE1000835 LIGHT BARS  45 WATTS
[LAMP](4)NICHIA SMT LIGHT BARS  3500K
[BALLASTCAT]1048
[BALLAST]MAGTECH ELECTRONIC DRIVER
[OTHER]INPUT WATTS: 33.39; AMPS: 0.28016; VOLTS: 120.03 VAC; HOURS
[MORE]OPERATED PRIOR TO TESTING: 24; STABILITY: 30 MIN; TOTAL OP
[MORE]TIME: 24.5 HRS; AMB TEMP: 25.2 DEG C.
[_MOUNTING]END MOUNT PENDANT JIG
[_ABSOLUTE]NOTE: DATA SHOWN IS ABSOLUTE FOR THE SAMPLE PROVIDED.
[_ABSOLUTELUMENS]2094
TILT=NONE
1 -1 1 37 5 1 1 0.145833 4 0
1 1 33.4
0 2.5 5 7.5 10 12.5 15 17.5 20 22.5 25 27.5 30 32.5 35 37.5 40 42.5 45 47.5 50 52.5 55 57.5 60 62.5 65 67.5 70 72.5 75 77.5 80 82.5 85 87.5 90
0 22.5 45 67.5 90
977.00 988.00 984.00 977.00 966.00 952.00 935.00 915.00 892.00 866.00 836.00 805.00 771.00 734.00 696.00 657.00 617.00 576.00 535.00 494.00 454.00 415.00 377.00 340.00 304.00 271.00 238.00 206.00 177.00 148.00 122.00 97.00 74.00 54.00 35.00 18.00 0.00
977.00 972.00 968.00 960.00 949.00 933.00 915.00 893.00 868.00 840.00 810.00 777.00 741.00 704.00 665.00 626.00 586.00 546.00 506.00 467.00 429.00 392.00 356.00 321.00 287.00 255.00 224.00 194.00 166.00 140.00 115.00 92.00 71.00 52.00 34.00 17.00 0.00
977.00 976.00 970.00 961.00 947.00 929.00 907.00 880.00 850.00 817.00 781.00 743.00 705.00 665.00 625.00 583.00 543.00 503.00 463.00 426.00 389.00 354.00 321.00 289.00 259.00 230.00 203.00 177.00 152.00 129.00 107.00 87.00 68.00 49.00 32.00 16.00 0.00
977.00 973.00 966.00 953.00 937.00 914.00 886.00 855.00 820.00 782.00 741.00 699.00 658.00 616.00 574.00 533.00 494.00 455.00 419.00 384.00 350.00 319.00 289.00 260.00 233.00 208.00 184.00 161.00 140.00 119.00 100.00 81.00 63.00 46.00 30.00 15.00 0.00
977.00 972.00 961.00 951.00 934.00 909.00 880.00 847.00 809.00 769.00 729.00 686.00 644.00 601.00 559.00 518.00 479.00 441.00 405.00 370.00 338.00 307.00 278.00 251.00 225.00 200.00 177.00 156.00 135.00 115.00 97.00 79.00 62.00 45.00 30.00 15.00 0.00
