IESNA:LM-63-2002
[TEST]P21069
[TESTLAB]Innovations Center P2
[ISSUEDATE]01/27/11
[MANUFAC]COOPER LIGHTING - NEO-RAY
[LUMCAT]S22DR-2L35-STG-4D-1ED-S92HT
[LUMINAIRE]NEOREY 4 FOOT BY 5 INCH TALL BY 1 3/4 INCH WIDE SUSPENDED
[MORE]FIXTURE DRIVEN AT FULL CURRENT (2.0A) WITH 3500K LED MODULE
[MORE]1.5 INCHES FROM OUTER SURFACE OF LIGHT OPENING, PAINTED WHITE
[MORE]INTERIOR OPTICAL CHAMBER, INTERNAL SPECULAR REFLECTORS, AND
[MORE]DIFFUSE WHITE 87 PERCENT TRANSMISSION LENS, NEW DRIVER. 
[MORE]--ABSOLUTE PHOTOMETRY IS BASED ON CALIBRATION FACTORS CREATED
[MORE]USING A 500 WATT, NIST TRACEABLE, OMNIDIRECTIONAL LAB LUMEN
[MORE]STANDARD IN THE GONIOPHOTOMETER WITH TEST DISTANCE OF 28.75
[MORE]FEET---
[LAMPCAT](4)LLE1000835 LIGHT BARS  45 WATTS
[LAMP](4)NICHIA SMT LIGHT BARS  3500K
[BALLASTCAT]1048
[BALLAST]MAGTECH ELECTRONIC DRIVER
[OTHER]INPUT WATTS: 35.46; AMPS: 0.29810; VOLTS: 120.03 VAC; HOURS
[MORE]OPERATED PRIOR TO TESTING: 2; STABILITY: 30 MIN; TOTAL OP
[MORE]TIME: 2.5 HRS; AMB TEMP: 25.2 DEG C.
[_MOUNTING]END MOUNT PENDANT JIG
[_ABSOLUTE]NOTE: DATA SHOWN IS ABSOLUTE FOR THE SAMPLE PROVIDED.
[_ABSOLUTELUMENS]2694
TILT=NONE
1 -1 1 37 5 1 1 0.145833 4 0
1 1 45
0 2.5 5 7.5 10 12.5 15 17.5 20 22.5 25 27.5 30 32.5 35 37.5 40 42.5 45 47.5 50 52.5 55 57.5 60 62.5 65 67.5 70 72.5 75 77.5 80 82.5 85 87.5 90
0 22.5 45 67.5 90
1255.00 1269.00 1265.00 1255.00 1242.00 1224.00 1202.00 1176.00 1146.00 1113.00 1075.00 1034.00 991.00 944.00 895.00 845.00 793.00 740.00 688.00 635.00 584.00 533.00 485.00 437.00 392.00 348.00 306.00 265.00 227.00 191.00 157.00 125.00 96.00 69.00 45.00 
23.00 0.00
1255.00 1249.00 1244.00 1234.00 1219.00 1199.00 1175.00 1148.00 1116.00 1080.00 1041.00 998.00 953.00 905.00 855.00 805.00 753.00 702.00 651.00 601.00 552.00 504.00 458.00 413.00 370.00 328.00 288.00 250.00 215.00 180.00 149.00 119.00 92.00 67.00 43.00 
21.00 0.00
1255.00 1254.00 1247.00 1234.00 1216.00 1193.00 1165.00 1131.00 1093.00 1051.00 1005.00 956.00 906.00 856.00 804.00 751.00 699.00 647.00 597.00 548.00 502.00 456.00 413.00 372.00 333.00 296.00 261.00 228.00 196.00 166.00 138.00 112.00 87.00 63.00 41.00 
20.00 0.00
1255.00 1250.00 1241.00 1225.00 1204.00 1175.00 1138.00 1099.00 1055.00 1005.00 953.00 900.00 847.00 793.00 740.00 687.00 636.00 586.00 539.00 494.00 451.00 410.00 372.00 335.00 300.00 268.00 237.00 207.00 180.00 153.00 128.00 104.00 81.00 60.00 39.00 
19.00 0.00
1255.00 1248.00 1235.00 1221.00 1199.00 1168.00 1131.00 1089.00 1040.00 989.00 937.00 883.00 829.00 773.00 720.00 667.00 617.00 568.00 522.00 477.00 435.00 396.00 358.00 323.00 289.00 258.00 228.00 200.00 174.00 148.00 124.00 101.00 79.00 58.00 38.00 
18.00 0.00
