IESNA:LM-63-2002
[TEST]23491     
[TESTLAB]LIGHTING SCIENCES, INC.                            
[ISSUEDATE] 3/ 4/2008
[MANUFAC]COOPER LIGHTING - CORELITE                                      
[LUMCAT]R1-WP-2T5-UNV-24-T1                                                             
[LUMINAIRE]WITH WHITE INTERIOR AND FROSTED LINEAR PRISMATIC PLASTIC LENS WITH ROUND PERF   
[LAMP]TWO SYLVANIA 54 WATT T5HO LAMPS                                                   
[LAMPCAT]FP54/841. LUMEN RATING = 4450 LMS.                                              
[OTHER]ONE UNIVERSAL B228PUNV-C BALLAST OPERATING AT 120 VAC AND 61 WATTS              
[OTHER]LAMP COLD SPOT TEMPERATURE - 50.1 & 48.8 C
[OTHER]PAINT REFLECTIVITY - FIXTURE 91% TRAY 94%
[OTHER]PRORATED FROM T23491
TILT=NONE
2 4450 1.71 37 5 1 1 1.95 3.92 0
1 1 61
0 2.5 5 7.5 10 12.5 15 17.5 20 22.5 25 27.5 30 32.5 35 37.5 40 42.5 45 47.5 50 52.5 55 57.5 60 62.5 65 67.5 70 72.5 75 77.5 80 82.5 85 87.5 90
0 22.5 45 67.5 90
986.10 971.40 967.50 960.90 951.80 940.10 925.90 909.10 890.10 868.60 845.00 819.30 791.80 762.50 731.90 699.90 667.00 632.70 597.50 561.30 524.70 487.60 450.10 412.20 374.00 335.70 297.30 259.00 220.60 182.80 145.60 109.70 76.60 49.80 27.80 10.10 1.10
986.10 978.30 974.70 968.60 960.20 949.20 935.50 919.60 901.50 881.10 858.80 834.20 807.90 779.70 750.10 719.20 687.00 653.70 619.80 585.40 550.00 513.90 477.50 440.80 403.90 367.30 331.40 296.70 263.20 231.30 201.70 177.00 156.70 130.30 85.60 30.80 4.00
986.10 989.70 986.50 981.30 974.80 965.90 954.60 940.90 925.20 908.10 888.70 867.40 844.50 819.90 793.60 766.00 737.30 706.40 675.30 643.70 611.80 579.80 549.10 518.50 488.60 458.70 430.10 404.20 384.10 369.60 353.80 326.50 280.90 208.50 111.00 40.70 8.60
986.10 992.30 989.90 985.90 980.80 973.70 964.60 953.20 941.20 927.00 911.30 893.20 873.50 851.80 828.90 804.60 779.30 753.40 727.50 701.90 676.40 650.40 623.80 597.80 572.80 551.00 534.40 523.60 513.40 495.90 467.20 421.20 348.20 230.40 115.10 52.30 
12.00
986.10 992.90 990.10 987.40 983.00 976.60 968.40 959.20 947.90 934.80 920.30 903.60 884.80 864.30 842.70 820.40 797.30 773.70 750.30 726.80 702.60 678.10 653.60 629.50 607.60 590.00 578.60 569.60 555.60 533.00 498.50 443.90 353.30 222.30 114.80 54.50 
12.40
