IESNA:LM-63-2002
[TEST]23492     
[TESTLAB]LIGHTING SCIENCES, INC.                            
[ISSUEDATE] 3/ 4/2008
[MANUFAC]COOPER LIGHTING - CORELITE                                      
[LUMCAT]R1-WP-2T5-UNV-14-T1                                                             
[LUMINAIRE]WITH WHITE INTERIOR AND FROSTED LINEAR PRISMATIC PLASTIC LENS WITH ROUND PERF   
[LAMP]TWO SYLVANIA 54 WATT T5HO LAMPS                                                   
[LAMPCAT]FP54/841. LUMEN RATING = 4450 LMS.                                              
[OTHER]ONE UNIVERSAL B228PUNV-C BALLAST OPERATING AT 120 VAC AND 60 WATTS              
[OTHER]LAMP COLD SPOT TEMPERATURE - 51.4 & 50.7 C
[OTHER]PAINT REFLECTIVITY - FIXTURE 75% TRAY 94%
[OTHER]PRORATED FROM T23492
TILT=NONE
2 4450 1.71 37 5 1 1 0.92 3.92 0
1 1 60
0 2.5 5 7.5 10 12.5 15 17.5 20 22.5 25 27.5 30 32.5 35 37.5 40 42.5 45 47.5 50 52.5 55 57.5 60 62.5 65 67.5 70 72.5 75 77.5 80 82.5 85 87.5 90
0 22.5 45 67.5 90
1150.50 1132.00 1127.70 1120.40 1110.00 1096.90 1080.80 1061.60 1040.10 1016.00 989.10 960.00 928.60 895.30 860.10 823.50 785.70 746.60 706.30 664.80 622.70 579.60 535.80 491.80 447.30 402.80 358.20 313.30 268.50 223.60 179.70 136.80 97.00 62.90 33.50 
10.70 1.10
1150.50 1140.20 1136.00 1129.20 1119.60 1107.10 1091.60 1073.30 1052.50 1029.40 1003.60 975.60 945.50 913.20 878.90 843.40 806.10 767.30 727.50 687.30 645.70 603.40 560.70 517.80 474.50 430.60 386.70 343.00 299.50 256.10 212.50 168.10 119.50 72.90 39.50 
16.30 2.70
1150.50 1154.80 1151.30 1145.20 1137.40 1127.20 1113.90 1097.90 1079.30 1058.80 1035.70 1010.20 982.50 952.80 921.10 888.00 852.60 815.20 776.70 737.30 696.90 655.20 614.20 572.90 530.60 486.60 440.70 391.70 336.60 271.30 207.70 155.90 118.90 87.20 53.20 
23.30 4.90
1150.50 1158.70 1155.90 1151.10 1144.80 1136.20 1124.60 1110.50 1094.90 1076.80 1056.50 1033.50 1008.10 980.30 950.80 919.60 886.20 851.30 815.10 779.10 742.20 702.60 661.50 617.70 571.30 521.30 462.60 389.50 316.60 253.50 204.70 170.30 134.40 94.30 56.70
 25.80 6.20
1150.50 1160.10 1157.10 1153.60 1148.00 1139.50 1128.90 1116.80 1102.00 1084.90 1065.60 1043.90 1018.90 991.80 962.70 932.20 900.00 866.30 832.30 797.30 759.60 720.40 677.80 632.30 583.30 526.60 454.70 378.20 309.40 250.60 211.00 177.00 136.80 95.50 58.20
 27.00 7.20
