IESNA:LM-63-1995
[TEST]     23302
[MANUFAC]COOPER LIGHTING - CORELITE
[LUMCAT]R2-WL-3N5-22                                                                    
[LUMINAIRE]WITH WHITE INTERIOR AND FROSTED LINEAR PRISMATIC PLASTIC LENS                   
[LAMP]THREE SYLVANIA 14 WATT T5 LAMPS                                                 
[LAMPCAT]FP14/841. LUMEN RATING = 1200 LMS.                                              
[OTHER]TWO UNIVERSAL B228PUNV-C BALLASTS OPERATING AT 120 VAC AND 46 WATTS             
[OTHER]LAMP COLD SPOT TEMPERATURE - 52.7 & 52.8 & 52.3 C
[OTHER]PAINT REFLECTIVITY - FIXTURE 92% TRAY 84%
TILT=NONE
3
      1200
1
37
5
1
1
  1.95
  1.91
  0.00
1
1
   46.0000
0 2.5 5 7.5 10 12.5 15 17.5 20 22.5 25 27.5 30 32.5 35 37.5
40 42.5 45 47.5 50 52.5 55 57.5 60 62.5 65 67.5 70 72.5 75
77.5 80 82.5 85 87.5 90
0 22.5 45 67.5 90
     854.8      854.8      851.6      846.2      839.1      829.9      818.1      804.1      787.9      770.0
     750.1      728.4      704.6      679.4      652.7      625.1      596.2      566.5      536.2      505.5
     473.6      441.0      408.8      376.4      344.2      312.3      280.7      249.0      217.8      187.2
     157.1      127.9       99.8       72.4       45.9       20.5        4.0
     854.8      856.2      853.3      848.5      842.0      833.5      822.6      809.6      794.7      778.1
     759.7      739.4      717.2      693.5      668.2      642.0      614.8      585.8      556.3      526.4
     495.3      463.1      431.7      400.0      368.5      337.4      306.5      276.0      245.5      215.3
     185.2      155.4      125.5       94.2       61.2       28.3        6.5
     854.8      854.2      852.0      848.6      843.6      837.1      828.9      818.8      807.1      794.1
     779.8      763.2      745.0      725.2      704.0      681.7      658.2      633.1      607.5      581.7
     554.9      526.7      498.7      469.9      441.0      411.7      382.5      353.3      324.6      295.6
     265.5      233.3      196.9      150.4       96.8       45.1       11.6
     854.8      852.4      850.7      848.4      845.3      841.0      835.7      828.5      820.1      810.3
     800.0      787.1      773.1      757.5      740.6      723.0      704.4      684.2      663.2      641.4
     618.0      593.2      568.2      542.6      517.0      491.0      464.8      438.4      411.4      383.1
     352.3      316.4      266.8      199.4      126.6       61.6       17.4
     854.8      851.1      849.4      848.1      845.7      842.0      837.9      831.9      824.8      817.1
     807.9      797.2      785.0      771.2      756.1      740.6      723.9      705.8      686.9      666.4
     644.8      621.8      597.9      573.4      548.9      524.0      499.1      473.7      447.6      419.7
     388.9      352.2      295.0      219.2      143.9       74.2       23.6
