IESNA:LM-63-2002
[TEST]23498     
[TESTLAB]LIGHTING SCIENCES, INC.                            
[ISSUEDATE] 3/ 4/2008
[MANUFAC]COOPER LIGHTING - CORELITE
[LUMCAT]R2-WP-2N5-1C-UNV-24-T1                                                          
[LUMINAIRE]WITH WHITE INTERIOR AND FROSTED LINEAR PRISMATIC PLASTIC LENS WITH ROUND PERF   
[LAMP]TWO SYLVANIA 28 WATT T5 LAMPS                                                   
[LAMPCAT]FP28/841. LUMEN RATING = 2600 LMS.                                              
[OTHER]ONE UNIVERSAL B228PUNV-C BALLAST OPERATING AT 120 VAC AND 59 WATTS              
[OTHER]LAMP COLD SPOT TEMPERATURE - 46.7 & 49.5 C
[OTHER]PAINT REFLECTIVITY - FIXTURE 92% TRAY 93%
[OTHER]PRORATED FROM T23498
TILT=NONE
2 4450 1.71 37 5 1 1 1.95 3.92 0
1 1 59
0 2.5 5 7.5 10 12.5 15 17.5 20 22.5 25 27.5 30 32.5 35 37.5 40 42.5 45 47.5 50 52.5 55 57.5 60 62.5 65 67.5 70 72.5 75 77.5 80 82.5 85 87.5 90
0 22.5 45 67.5 90
1047.80 1032.70 1028.60 1021.80 1012.40 1000.30 985.60 968.30 948.80 926.90 902.60 876.20 848.00 817.50 785.00 751.10 716.30 680.50 643.80 605.90 567.00 527.30 486.90 446.40 405.60 364.40 322.90 281.80 240.60 199.30 158.70 119.00 82.60 53.40 29.70 10.90 
1.60
1047.80 1039.80 1036.00 1029.90 1021.30 1010.20 996.20 979.90 961.20 940.10 916.70 891.30 864.30 835.20 804.60 772.20 738.40 703.40 667.50 630.80 592.60 553.70 514.90 476.00 436.50 397.00 357.20 318.50 281.00 245.20 211.60 182.10 158.40 129.40 85.30 32.80
 5.00
1047.80 1051.60 1048.30 1043.10 1036.70 1027.80 1016.20 1002.60 986.90 969.50 949.50 927.30 903.60 878.20 850.70 821.80 791.40 758.90 726.10 692.20 657.40 621.80 587.70 554.30 521.50 488.10 455.50 424.90 400.20 383.20 364.70 336.00 289.00 216.50 119.80 
44.70 10.40
1047.80 1054.00 1051.60 1047.80 1043.10 1036.20 1027.20 1015.80 1003.80 989.20 972.90 954.20 934.00 911.80 887.80 862.50 835.30 807.30 778.70 750.10 722.10 693.70 665.20 636.90 608.60 582.50 561.80 549.70 539.30 522.40 493.50 447.50 373.60 255.00 129.10 
57.70 14.90
1047.80 1054.80 1052.00 1049.70 1045.70 1039.30 1031.20 1022.30 1010.90 998.00 983.10 966.30 946.90 925.80 903.20 879.30 853.90 828.00 802.10 776.70 750.60 724.50 697.50 670.80 645.40 623.80 610.00 601.70 590.60 569.20 535.90 482.20 395.70 257.20 134.80 
64.40 16.80
