IESNA:LM-63-2002
[TEST]23500     
[TESTLAB]LIGHTING SCIENCES, INC.                            
[ISSUEDATE] 3/ 4/2008
[MANUFAC]COOPER LIGHTING - CORELITE
[LUMCAT]R2-WP-3N5-1C-UNV-24-T1                                                          
[LUMINAIRE]WITH WHITE INTERIOR AND FROSTED LINEAR PRISMATIC PLASTIC LENS WITH ROUND PERF   
[LAMP]THREE SYLVANIA 28 WATT T5 LAMPS                                                 
[LAMPCAT]FP28/841. LUMEN RATING = 2600 LMS.                                              
[OTHER]TWO UNIVERSAL B228PUNV-C BALLASTS OPERATING AT 120 VAC AND 83 WATTS             
[OTHER]LAMP COLD SPOT TEMPERATURE - 58.9 & 57.3 & 57.7 C
[OTHER]PAINT REFLECTIVITY - FIXTURE 92% TRAY 93%
[OTHER]PRORATED FROM T23500
TILT=NONE
3 4450 1.71 37 5 1 1 1.95 3.92 0
1 1 83
0 2.5 5 7.5 10 12.5 15 17.5 20 22.5 25 27.5 30 32.5 35 37.5 40 42.5 45 47.5 50 52.5 55 57.5 60 62.5 65 67.5 70 72.5 75 77.5 80 82.5 85 87.5 90
0 22.5 45 67.5 90
1436.70 1416.00 1410.10 1401.00 1388.20 1371.70 1351.30 1327.50 1300.80 1271.00 1237.60 1201.30 1162.20 1120.60 1077.00 1031.20 983.60 934.60 884.00 832.10 778.80 724.80 669.40 614.10 557.90 501.50 444.80 387.60 330.40 273.70 217.50 163.60 113.40 72.90 
40.40 14.80 2.00
1436.70 1426.20 1421.00 1412.60 1400.80 1385.40 1366.20 1343.90 1318.40 1290.10 1258.70 1224.20 1186.90 1146.90 1104.80 1060.40 1014.30 966.50 917.20 867.10 814.70 761.20 707.50 653.40 598.40 543.60 488.90 435.50 382.50 331.10 281.70 238.20 201.70 159.90 
102.80 39.50 6.20
1436.70 1441.80 1437.40 1430.40 1421.70 1410.10 1394.40 1376.20 1354.80 1331.50 1304.80 1275.00 1243.00 1208.40 1171.40 1132.10 1090.80 1046.30 1000.90 954.20 906.80 857.80 810.00 761.50 713.20 663.40 615.00 568.80 528.80 496.10 461.50 416.60 353.00 
265.00 152.90 60.80 14.80
1436.70 1445.30 1442.20 1437.00 1430.90 1422.10 1410.10 1394.80 1379.30 1359.90 1338.80 1313.80 1286.80 1256.80 1224.80 1191.00 1154.50 1116.80 1077.90 1038.10 997.60 956.00 912.80 869.40 826.10 784.70 749.50 721.20 693.10 658.90 611.50 546.20 454.10 
319.50 171.20 81.50 22.80
1436.70 1445.80 1442.20 1439.30 1434.20 1426.10 1415.50 1404.10 1389.30 1372.10 1352.60 1330.30 1304.50 1276.50 1246.50 1215.30 1182.20 1147.10 1111.10 1073.90 1035.20 995.40 955.00 914.10 874.30 838.20 809.00 783.30 754.30 713.90 660.60 585.90 484.00 
328.40 181.70 93.60 27.00
