IESNA:LM-63-2002
[TEST]23499     
[TESTLAB]LIGHTING SCIENCES, INC.                            
[ISSUEDATE] 3/ 4/2008
[MANUFAC]COOPER LIGHTING - CORELITE
[LUMCAT]R2-WR-2N5-1C-UNV-24-T1                                                          
[LUMINAIRE]WHITE INTERIOR AND FROSTED LINEAR PRISMATIC PLASTIC LENS WITH RECTANGULAR PERF  
[LAMP]TWO SYLVANIA 28 WATT T5 LAMPS                                                   
[LAMPCAT]FP28/841. LUMEN RATING = 2600 LMS.                                              
[OTHER]ONE UNIVERSAL B228PUNV-C BALLAST OPERATING AT 120 VAC AND 59 WATTS              
[OTHER]LAMP COLD SPOT TEMPERATURE - 51.3 & 45.6 C
[OTHER]PAINT REFLECTIVITY - FIXTURE 92% TRAY 93%
[OTHER]PRORATED FROM T23499
TILT=NONE
2 4450 1.71 37 5 1 1 1.95 3.92 0
1 1 59
0 2.5 5 7.5 10 12.5 15 17.5 20 22.5 25 27.5 30 32.5 35 37.5 40 42.5 45 47.5 50 52.5 55 57.5 60 62.5 65 67.5 70 72.5 75 77.5 80 82.5 85 87.5 90
0 22.5 45 67.5 90
916.90 903.80 900.90 896.20 889.50 880.70 870.00 857.40 842.70 826.10 807.60 787.40 765.50 742.20 717.10 690.60 663.20 634.80 605.30 574.40 542.60 509.70 476.00 442.10 407.50 372.30 336.60 300.30 264.10 227.30 190.30 153.60 116.90 81.30 46.80 17.70 2.20
916.90 910.00 907.20 902.70 896.40 887.90 877.20 864.70 850.60 834.40 816.60 796.80 775.70 752.90 728.60 702.70 675.70 647.40 618.30 588.40 557.00 524.60 492.00 458.70 424.90 390.70 356.40 322.70 290.10 257.60 225.40 196.90 174.10 144.00 94.30 35.70 4.50
916.90 920.00 917.20 912.80 907.40 899.90 890.50 879.40 866.70 852.40 836.20 818.30 799.40 778.60 756.10 732.20 707.00 680.10 652.70 624.10 595.10 565.60 537.50 509.30 480.90 451.00 422.20 396.10 378.00 369.00 357.00 330.40 283.80 209.40 110.10 34.50 6.00
916.90 922.50 919.90 915.80 911.00 904.60 896.40 886.30 876.20 863.80 850.00 833.90 816.70 797.60 776.80 754.90 731.30 707.50 683.60 660.00 636.00 611.00 585.60 560.30 536.40 516.30 504.80 503.60 502.70 492.30 467.60 423.70 349.30 230.50 104.10 32.50 7.30
916.90 923.10 919.80 916.40 911.70 905.50 897.80 889.80 879.90 868.30 854.90 839.80 822.70 804.00 784.10 763.60 742.60 721.10 699.40 676.90 653.40 629.50 605.50 582.90 563.40 550.70 548.60 551.30 547.90 532.70 503.10 449.50 361.90 221.50 99.30 31.50 7.30
